2000 .False. # Number of lines, conductive flag
# 5 line header for n-k original data
# Perovskite CaTiO3  - Posch et al. (2003) - (amorphous?)
# Taken from: http://www.astro.uni-jena.de/Laboratory/OCDB/tioxides.html
# wl(um)      n                k
   2.000000   2.27616787   0.00023943
   2.008000   2.27595782   0.00024165
   2.016032   2.27574658   0.00024387
   2.024096   2.27553391   0.00024829
   2.032192   2.27531767   0.00025051
   2.040321   2.27510238   0.00025273
   2.048482   2.27488351   0.00025715
   2.056676   2.27466321   0.00025937
   2.064902   2.27444124   0.00026380
   2.073162   2.27421641   0.00026602
   2.081454   2.27399182   0.00026962
   2.089780   2.27376390   0.00027267
   2.098139   2.27353454   0.00027490
   2.106531   2.27330208   0.00027932
   2.114957   2.27307010   0.00028313
   2.123417   2.27283478   0.00028598
   2.131910   2.27259803   0.00029041
   2.140438   2.27235794   0.00029264
   2.148999   2.27211666   0.00029707
   2.157595   2.27187419   0.00029961
   2.166225   2.27163053   0.00030374
   2.174890   2.27138329   0.00030818
   2.183590   2.27113461   0.00031107
   2.192324   2.27088261   0.00031485
   2.201093   2.27063012   0.00031929
   2.209897   2.27037501   0.00032373
   2.218737   2.27011728   0.00032597
   2.227612   2.26985812   0.00033041
   2.236522   2.26959777   0.00033486
   2.245468   2.26933408   0.00033930
   2.254449   2.26906776   0.00034375
   2.263467   2.26880121   0.00034820
   2.272521   2.26852989   0.00035150
   2.281611   2.26825929   0.00035491
   2.290737   2.26798344   0.00035934
   2.299900   2.26770639   0.00036380
   2.309099   2.26742792   0.00036825
   2.318336   2.26714730   0.00037271
   2.327609   2.26686406   0.00037717
   2.336919   2.26657748   0.00038321
   2.346267   2.26628995   0.00038777
   2.355651   2.26599908   0.00039276
   2.365074   2.26570654   0.00039722
   2.374534   2.26540995   0.00040168
   2.384032   2.26511383   0.00040615
   2.393568   2.26481223   0.00041062
   2.403142   2.26451015   0.00041730
   2.412755   2.26420546   0.00042177
   2.422405   2.26389837   0.00042625
   2.432095   2.26358771   0.00043293
   2.441823   2.26327515   0.00043741
   2.451590   2.26295972   0.00044189
   2.461396   2.26264095   0.00044858
   2.471242   2.26232147   0.00045306
   2.481127   2.26199865   0.00045976
   2.491051   2.26167250   0.00046425
   2.501015   2.26134467   0.00047095
   2.511019   2.26101303   0.00047544
   2.521063   2.26067924   0.00048215
   2.531147   2.26034307   0.00048885
   2.541271   2.26000381   0.00049335
   2.551436   2.25966144   0.00050006
   2.561641   2.25931597   0.00050678
   2.571888   2.25896955   0.00051258
   2.582175   2.25861788   0.00051801
   2.592504   2.25826526   0.00052473
   2.602874   2.25790787   0.00053146
   2.613285   2.25754857   0.00053818
   2.623738   2.25718665   0.00054491
   2.634233   2.25682235   0.00055165
   2.644769   2.25645399   0.00055839
   2.655349   2.25608230   0.00056513
   2.665970   2.25570774   0.00057187
   2.676633   2.25533009   0.00057862
   2.687340   2.25494957   0.00058537
   2.698089   2.25456572   0.00059212
   2.708881   2.25417852   0.00060109
   2.719716   2.25378942   0.00060785
   2.730595   2.25339508   0.00061462
   2.741517   2.25299978   0.00062164
   2.752483   2.25259972   0.00063037
   2.763493   2.25219631   0.00063740
   2.774547   2.25178909   0.00064614
   2.785645   2.25137901   0.00065292
   2.796787   2.25096631   0.00066192
   2.807974   2.25055051   0.00066966
   2.819206   2.25013065   0.00067773
   2.830482   2.24970651   0.00068675
   2.841804   2.24927974   0.00069535
   2.853171   2.24885011   0.00070257
   2.864583   2.24841547   0.00071160
   2.876042   2.24797821   0.00072064
   2.887546   2.24753571   0.00072968
   2.899096   2.24709201   0.00073872
   2.910692   2.24664235   0.00074777
   2.922335   2.24618983   0.00075683
   2.934023   2.24573469   0.00076588
   2.945759   2.24527478   0.00077495
   2.957542   2.24481082   0.00078511
   2.969372   2.24434400   0.00079523
   2.981249   2.24387264   0.00080440
   2.993174   2.24339628   0.00081348
   3.005147   2.24291706   0.00082480
   3.017167   2.24243307   0.00083456
   3.029236   2.24194646   0.00084523
   3.041352   2.24145579   0.00085578
   3.053517   2.24095917   0.00086568
   3.065732   2.24045992   0.00087656
   3.077994   2.23995614   0.00088791
   3.090306   2.23944902   0.00089752
   3.102667   2.23893595   0.00090890
   3.115077   2.23841977   0.00092027
   3.127537   2.23789907   0.00093166
   3.140048   2.23737335   0.00094305
   3.152607   2.23684525   0.00095445
   3.165218   2.23631144   0.00096651
   3.177878   2.23577237   0.00097923
   3.190590   2.23522997   0.00099093
   3.203352   2.23468256   0.00100236
   3.216165   2.23413062   0.00101604
   3.229029   2.23357391   0.00102748
   3.241945   2.23301268   0.00104117
   3.254913   2.23244810   0.00105339
   3.267932   2.23187709   0.00106635
   3.281004   2.23130131   0.00108007
   3.294127   2.23072124   0.00109358
   3.307304   2.23013616   0.00110751
   3.320533   2.22954655   0.00112128
   3.333815   2.22895241   0.00113504
   3.347150   2.22835135   0.00114877
   3.360538   2.22774816   0.00116259
   3.373980   2.22713876   0.00117637
   3.387476   2.22652245   0.00119139
   3.401025   2.22590303   0.00120623
   3.414629   2.22527838   0.00122230
   3.428288   2.22464705   0.00123613
   3.442000   2.22401118   0.00125222
   3.455768   2.22336912   0.00126802
   3.469591   2.22272325   0.00128307
   3.483469   2.22207069   0.00129831
   3.497403   2.22141314   0.00131514
   3.511392   2.22075129   0.00133217
   3.525437   2.22008252   0.00134686
   3.539539   2.21940732   0.00136520
   3.553697   2.21872663   0.00138139
   3.567911   2.21804214   0.00139940
   3.582183   2.21735144   0.00141600
   3.596512   2.21665382   0.00143456
   3.610897   2.21594977   0.00145118
   3.625340   2.21524096   0.00146977
   3.639842   2.21452618   0.00148828
   3.654401   2.21380472   0.00150670
   3.669018   2.21307755   0.00152505
   3.683694   2.21234369   0.00154358
   3.698428   2.21160388   0.00156374
   3.713222   2.21085858   0.00158306
   3.728075   2.21010637   0.00160212
   3.742986   2.20934796   0.00162233
   3.757958   2.20858216   0.00164245
   3.772990   2.20781159   0.00166452
   3.788081   2.20703316   0.00168474
   3.803234   2.20624757   0.00170464
   3.818446   2.20545745   0.00172672
   3.833720   2.20465851   0.00174874
   3.849054   2.20385385   0.00177068
   3.864450   2.20304298   0.00179255
   3.879908   2.20222425   0.00181435
   3.895427   2.20139861   0.00183835
   3.911009   2.20056462   0.00186000
   3.926652   2.19972515   0.00188386
   3.942358   2.19887877   0.00190765
   3.958128   2.19802380   0.00193138
   3.973960   2.19716287   0.00195504
   3.989856   2.19629359   0.00198090
   4.005815   2.19541812   0.00200442
   4.021838   2.19453478   0.00203017
   4.037925   2.19364333   0.00205584
   4.054077   2.19274378   0.00208146
   4.070292   2.19183850   0.00210702
   4.086574   2.19092369   0.00213479
   4.102920   2.19000196   0.00216022
   4.119331   2.18907094   0.00218789
   4.135808   2.18813276   0.00221549
   4.152351   2.18718624   0.00224304
   4.168960   2.18623233   0.00227235
   4.185636   2.18527055   0.00230025
   4.202378   2.18429899   0.00232963
   4.219187   2.18332005   0.00235806
   4.236063   2.18233156   0.00238863
   4.253007   2.18133569   0.00241863
   4.270019   2.18033075   0.00244939
   4.287099   2.17931843   0.00247983
   4.304247   2.17829514   0.00251150
   4.321464   2.17726517   0.00254312
   4.338749   2.17622542   0.00257471
   4.356104   2.17517614   0.00260815
   4.373528   2.17411804   0.00264004
   4.391022   2.17305183   0.00267399
   4.408586   2.17197347   0.00270786
   4.426220   2.17088866   0.00274162
   4.443924   2.16979218   0.00277757
   4.461699   2.16868782   0.00281305
   4.479546   2.16757369   0.00284893
   4.497464   2.16644979   0.00288470
   4.515454   2.16531658   0.00292060
   4.533515   2.16417193   0.00295788
   4.551649   2.16301918   0.00299544
   4.569855   2.16185379   0.00303292
   4.588134   2.16068006   0.00307259
   4.606486   2.15949678   0.00311216
   4.624912   2.15830088   0.00315163
   4.643412   2.15709662   0.00319099
   4.661984   2.15588045   0.00323259
   4.680632   2.15465403   0.00327407
   4.699354   2.15341663   0.00331548
   4.718152   2.15216947   0.00335678
   4.737023   2.15090942   0.00340032
   4.755972   2.14964008   0.00344376
   4.774995   2.14835882   0.00348713
   4.794095   2.14706469   0.00353274
   4.813271   2.14576149   0.00357827
   4.832523   2.14444518   0.00362372
   4.851853   2.14311862   0.00366989
   4.871261   2.14178014   0.00371672
   4.890745   2.14042926   0.00376427
   4.910308   2.13906670   0.00381380
   4.929949   2.13769174   0.00386151
   4.949668   2.13630486   0.00391135
   4.969466   2.13490582   0.00396109
   4.989344   2.13349271   0.00401303
   5.009301   2.13206983   0.00406484
   5.029338   2.13063121   0.00411653
   5.049455   2.12918115   0.00417042
   5.069653   2.12771964   0.00422420
   5.089931   2.12624264   0.00427786
   5.110291   2.12475324   0.00433375
   5.130731   2.12325120   0.00438953
   5.151253   2.12173486   0.00444755
   5.171858   2.12020612   0.00450546
   5.192545   2.11866212   0.00456327
   5.213315   2.11710548   0.00462097
   5.234168   2.11553311   0.00468094
   5.255105   2.11394739   0.00474318
   5.276125   2.11234784   0.00480533
   5.297228   2.11073303   0.00486739
   5.318417   2.10910416   0.00492965
   5.339690   2.10746193   0.00499363
   5.361050   2.10580325   0.00506020
   5.382493   2.10412931   0.00512550
   5.404022   2.10243964   0.00519289
   5.425638   2.10073566   0.00526012
   5.447340   2.09901667   0.00532962
   5.469129   2.09728003   0.00539900
   5.491005   2.09553027   0.00546823
   5.512969   2.09376192   0.00553976
   5.535021   2.09197903   0.00561355
   5.557160   2.09017849   0.00568724
   5.579388   2.08836269   0.00576084
   5.601706   2.08653045   0.00583672
   5.624112   2.08467913   0.00591492
   5.646608   2.08281326   0.00599302
   5.669194   2.08092952   0.00607105
   5.691870   2.07902741   0.00615141
   5.714638   2.07710838   0.00623280
   5.737495   2.07517147   0.00631535
   5.760445   2.07321620   0.00639778
   5.783486   2.07124376   0.00648251
   5.806621   2.06925201   0.00656955
   5.829846   2.06724286   0.00665647
   5.853165   2.06521440   0.00674329
   5.876577   2.06316710   0.00683486
   5.900084   2.06109977   0.00692393
   5.923683   2.05901265   0.00701777
   5.947378   2.05690765   0.00711136
   5.971167   2.05478168   0.00720525
   5.995051   2.05263615   0.00730134
   6.019031   2.05047107   0.00739965
   6.043107   2.04828548   0.00749824
   6.067278   2.04607868   0.00759907
   6.091548   2.04385066   0.00769989
   6.115913   2.04160190   0.00780374
   6.140376   2.03933191   0.00790824
   6.164937   2.03704071   0.00801512
   6.189597   2.03472710   0.00812195
   6.214355   2.03239107   0.00823155
   6.239212   2.03003311   0.00834423
   6.264168   2.02765298   0.00845682
   6.289225   2.02524924   0.00857108
   6.314381   2.02282333   0.00868672
   6.339638   2.02037287   0.00880407
   6.364995   2.01789927   0.00892383
   6.390456   2.01540256   0.00904605
   6.416017   2.01288056   0.00916824
   6.441680   2.01033330   0.00929292
   6.467446   2.00776386   0.00942032
   6.493317   2.00516701   0.00954974
   6.519289   2.00254583   0.00968043
   6.545366   1.99989939   0.00981294
   6.571546   1.99722648   0.00994795
   6.597833   1.99452615   0.01008298
   6.624224   1.99180257   0.01022225
   6.650720   1.98904896   0.01036312
   6.677322   1.98626924   0.01050579
   6.704031   1.98346162   0.01065104
   6.730846   1.98062754   0.01079788
   6.757770   1.97776532   0.01094815
   6.784801   1.97487330   0.01109954
   6.811940   1.97195196   0.01125398
   6.839186   1.96900332   0.01140987
   6.866543   1.96602428   0.01157019
   6.894009   1.96301436   0.01173059
   6.921585   1.95997417   0.01189618
   6.949269   1.95690453   0.01206187
   6.977067   1.95380259   0.01223031
   7.004974   1.95067108   0.01240321
   7.032994   1.94750643   0.01257775
   7.061125   1.94430888   0.01275457
   7.089369   1.94107985   0.01293562
   7.117725   1.93781662   0.01311774
   7.146197   1.93452203   0.01330348
   7.174780   1.93119061   0.01349294
   7.203479   1.92782664   0.01368523
   7.232292   1.92442715   0.01387936
   7.261221   1.92099273   0.01407881
   7.290266   1.91752255   0.01427853
   7.319427   1.91401553   0.01448393
   7.348703   1.91047144   0.01469071
   7.378098   1.90689158   0.01490304
   7.407610   1.90327358   0.01511837
   7.437240   1.89961767   0.01533589
   7.466988   1.89592147   0.01555824
   7.496856   1.89218700   0.01578365
   7.526843   1.88841259   0.01601214
   7.556949   1.88459861   0.01624641
   7.587176   1.88074410   0.01648386
   7.617525   1.87684619   0.01672588
   7.647995   1.87290680   0.01697045
   7.678586   1.86892474   0.01721829
   7.709300   1.86490071   0.01747243
   7.740137   1.86083186   0.01773008
   7.771096   1.85672021   0.01799374
   7.802180   1.85256076   0.01826089
   7.833388   1.84835756   0.01853330
   7.864722   1.84410548   0.01880770
   7.896179   1.83980775   0.01909055
   7.927764   1.83546388   0.01937528
   7.959474   1.83106983   0.01966835
   7.991312   1.82662535   0.01996278
   8.023277   1.82213283   0.02026608
   8.055368   1.81758821   0.02057347
   8.087589   1.81299329   0.02088470
   8.119941   1.80834556   0.02120265
   8.152418   1.80364454   0.02152630
   8.185028   1.79889011   0.02185758
   8.217768   1.79408026   0.02219402
   8.250638   1.78921390   0.02253603
   8.283640   1.78429139   0.02288510
   8.316774   1.77931237   0.02323852
   8.350040   1.77427411   0.02360100
   8.383441   1.76917756   0.02396958
   8.416973   1.76401985   0.02434655
   8.450641   1.75880206   0.02472822
   8.484442   1.75352097   0.02511922
   8.518380   1.74817502   0.02551544
   8.552453   1.74276793   0.02592225
   8.586661   1.73729265   0.02633616
   8.621008   1.73175049   0.02675607
   8.655492   1.72614169   0.02718548
   8.690113   1.72046340   0.02762553
   8.724874   1.71471572   0.02807170
   8.759772   1.70889592   0.02852794
   8.794811   1.70300412   0.02899354
   8.829988   1.69703758   0.02946908
   8.865309   1.69099510   0.02995446
   8.900769   1.68487704   0.03044990
   8.936373   1.67868018   0.03095541
   8.972116   1.67240214   0.03147137
   9.008004   1.66604507   0.03200046
   9.044036   1.65960324   0.03253765
   9.080211   1.65307820   0.03308785
   9.116531   1.64646888   0.03365096
   9.152996   1.63976991   0.03422501
   9.189608   1.63298082   0.03481323
   9.226367   1.62610090   0.03541368
   9.263270   1.61912906   0.03602771
   9.300323   1.61206138   0.03665554
   9.337523   1.60489738   0.03729946
   9.374873   1.59763408   0.03795592
   9.412373   1.59026837   0.03863011
   9.450021   1.58279955   0.03931725
   9.487821   1.57522655   0.04002488
   9.525771   1.56754494   0.04074647
   9.563873   1.55975389   0.04148625
   9.602129   1.55184865   0.04224455
   9.640535   1.54383087   0.04302096
   9.679098   1.53569305   0.04382044
   9.717813   1.52743399   0.04463680
   9.756683   1.51905143   0.04547488
   9.795710   1.51054180   0.04633585
   9.834892   1.50190318   0.04721959
   9.874231   1.49313259   0.04812571
   9.913727   1.48422515   0.04905658
   9.953382   1.47517753   0.05001457
   9.993195   1.46598744   0.05099691
  10.033166   1.45665038   0.05200965
  10.073298   1.44716251   0.05304847
  10.113591   1.43751979   0.05411916
  10.154045   1.42771673   0.05522177
  10.194660   1.41775203   0.05635573
  10.235438   1.40761673   0.05752551
  10.276379   1.39731193   0.05873308
  10.317484   1.38682508   0.05997407
  10.358754   1.37615752   0.06125908
  10.400187   1.36529803   0.06258331
  10.441787   1.35424578   0.06395171
  10.483555   1.34299254   0.06536371
  10.525487   1.33153582   0.06682528
  10.567589   1.31985939   0.06834114
  10.609858   1.30796373   0.06990573
  10.652297   1.29584146   0.07153061
  10.694905   1.28348386   0.07321429
  10.737684   1.27087820   0.07495891
  10.780634   1.25802088   0.07677387
  10.823756   1.24489999   0.07866066
  10.867051   1.23150921   0.08062247
  10.910518   1.21783459   0.08266600
  10.954158   1.20386589   0.08479386
  10.997975   1.18959415   0.08701536
  11.041966   1.17500126   0.08933556
  11.086133   1.16008067   0.09176225
  11.130477   1.14480925   0.09430418
  11.174999   1.12918186   0.09696809
  11.219698   1.11317742   0.09976324
  11.264576   1.09677792   0.10270189
  11.309633   1.07997060   0.10579577
  11.354872   1.06272268   0.10906404
  11.400290   1.04502916   0.11251370
  11.445890   1.02685237   0.11616649
  11.491673   1.00818098   0.12004002
  11.537641   0.98897547   0.12416222
  11.583788   0.96922058   0.12855099
  11.630123   0.94887155   0.13324848
  11.676642   0.92790300   0.13827689
  11.723350   0.90627831   0.14368322
  11.770241   0.88395870   0.14951558
  11.817321   0.86090881   0.15581869
  11.864590   0.83706993   0.16268277
  11.912048   0.81241465   0.17016385
  11.959694   0.78690696   0.17835535
  12.007532   0.76046890   0.18739170
  12.055561   0.73309666   0.19738722
  12.103783   0.70475489   0.20850831
  12.152197   0.67541254   0.22097342
  12.200805   0.64510566   0.23498972
  12.249607   0.61390537   0.25083557
  12.298606   0.58193427   0.26882437
  12.347799   0.54944092   0.28930774
  12.397189   0.51679140   0.31255898
  12.446777   0.48449889   0.33880833
  12.496564   0.45318931   0.36812642
  12.546550   0.42358017   0.40038317
  12.596734   0.39627191   0.43512908
  12.647120   0.37166026   0.47176072
  12.697708   0.34989327   0.50959623
  12.748498   0.33091918   0.54803079
  12.799491   0.31450993   0.58656764
  12.850689   0.30038020   0.62487036
  12.902090   0.28824195   0.66270459
  12.953696   0.27778304   0.69994545
  13.005510   0.26875174   0.73654157
  13.057531   0.26093957   0.77246690
  13.109763   0.25416404   0.80774206
  13.162198   0.24828406   0.84239012
  13.214849   0.24317572   0.87645143
  13.267706   0.23874114   0.90996891
  13.320776   0.23489890   0.94298434
  13.374059   0.23157936   0.97554070
  13.427552   0.22873622   1.00768244
  13.481262   0.22631480   1.03944540
  13.535189   0.22428347   1.07087886
  13.589327   0.22261246   1.10200691
  13.643683   0.22127675   1.13287520
  13.698256   0.22025894   1.16351318
  13.753050   0.21954034   1.19395185
  13.808059   0.21911933   1.22421455
  13.863292   0.21898565   1.25434244
  13.918744   0.21913464   1.28435588
  13.974419   0.21956931   1.31428039
  14.030314   0.22028947   1.34414089
  14.086435   0.22130525   1.37396109
  14.142779   0.22262803   1.40376210
  14.199350   0.22427765   1.43355942
  14.256146   0.22627234   1.46337354
  14.313169   0.22863090   1.49321485
  14.370420   0.23138635   1.52309954
  14.427902   0.23456721   1.55303025
  14.485613   0.23823024   1.58300257
  14.543554   0.24240999   1.61301029
  14.601728   0.24715935   1.64303577
  14.660135   0.25253019   1.67304397
  14.718773   0.25861418   1.70296979
  14.777647   0.26544687   1.73274601
  14.836756   0.27308390   1.76226938
  14.896105   0.28158611   1.79138076
  14.955686   0.29096726   1.81989729
  15.015508   0.30117378   1.84760797
